,dataset,approach,overseer_mistakes,ecg_count,OM_P@R95,OM_P@R95_threshold,OM_F1,OM_PRE,OM_REC/SENS,OM_SPEC,OM_corrected_frac
0,c15p,a2,1000,1000,1.0,0.0123383998870849,0.9775051124744376,1.0,0.956,0.0,0.454
1,c15p,a2,500,1000,0.8726003490401397,0.0334947109222412,0.967098703888335,0.9642147117296224,0.97,0.964,0.47
2,c15p,a2,50,1000,0.3937007874015749,0.1404577493667602,0.6861313868613138,0.5402298850574713,0.94,0.9578947368421052,0.32
3,c15p,a2,20,1000,0.5000000000000001,0.7845839262008667,0.5,0.3333333333333333,1.0,0.9591836734693876,0.55
4,c15p,a2,10,1000,0.2941176470588235,0.7100881934165955,0.3333333333333333,0.2,1.0,0.9595959595959596,0.4
5,ikem,a2,1000,1000,1.0,0.0004070997238159,0.7105093488072212,1.0,0.551,0.0,0.118
6,ikem,a2,500,1000,0.5605381165919284,0.0003446340560913,0.7168367346938777,0.98943661971831,0.562,0.994,0.1
7,ikem,a2,50,1000,0.1694915254237289,0.0256071090698242,0.6823529411764706,0.8285714285714286,0.58,0.9936842105263158,0.14
8,ikem,a2,20,1000,0.0664451827242525,0.0203444361686706,0.6666666666666667,0.6842105263157895,0.65,0.9938775510204082,0.2
9,ikem,a2,10,1000,0.0235294117647058,0.0061049461364746,0.4761904761904761,0.4545454545454545,0.5,0.993939393939394,0.1
10,ptbxl,a4,1000,1000,1.0,-0.9975631237030028,0.8016776512881966,1.0,0.669,0.0,0.08
11,ptbxl,a4,500,1000,0.5555555555555557,-0.922961950302124,0.8075560802833529,0.9855907780979828,0.684,0.99,0.082
12,ptbxl,a4,50,1000,0.0691562932226833,-0.4902211427688598,0.76,0.76,0.76,0.9873684210526316,0.12
13,ptbxl,a4,20,1000,0.0250312891113892,-0.9573447704315186,0.3157894736842105,0.3333333333333333,0.3,0.9877551020408164,0.1
14,ptbxl,a4,10,1000,0.0144300144300144,-0.4455006122589111,0.4666666666666667,0.35,0.7,0.9868686868686868,0.0
15,c15p,a3,1000,1000,1.0,0.0162338018417358,0.9775051124744376,1.0,0.956,0.0,0.478
16,c15p,a3,500,1000,0.7235890014471782,0.0023486018180847,0.9585439838220424,0.9693251533742332,0.948,0.97,0.448
17,c15p,a3,50,1000,0.1805054151624549,0.0122519731521606,0.6917293233082706,0.5542168674698795,0.92,0.9610526315789474,0.48
18,c15p,a3,20,1000,0.4255319148936171,0.6544339656829834,0.5128205128205129,0.3448275862068966,1.0,0.9612244897959183,0.45
19,c15p,a3,10,1000,0.7142857142857143,0.9891467690467834,0.3448275862068966,0.2083333333333333,1.0,0.9616161616161616,0.6
20,ptbxl,a1,1000,1000,1.0,0.0059383511543273,0.0314960629921259,1.0,0.016,0.0,0.0
21,ptbxl,a1,500,1000,0.5000000000000002,0.0059448480606079,0.0271317829457364,0.4375,0.014,0.982,0.0
22,ptbxl,a1,50,1000,0.0530222693531283,0.0306087136268615,0.0298507462686567,0.0588235294117647,0.02,0.983157894736842,0.0
23,ptbxl,a1,20,1000,0.0218579234972677,0.038460373878479,0.0,0.0,0.0,0.9826530612244898,0.0
24,ptbxl,a1,10,1000,0.0100300902708124,0.0126982927322387,0.074074074074074,0.0588235294117647,0.1,0.9838383838383838,0.0
25,ptbxl,a4,1000,1000,1.0,-0.9962865114212036,0.8137603795966786,1.0,0.686,0.0,0.086
26,ptbxl,a4,500,1000,0.550660792951542,-0.9671002626419068,0.8023668639053255,0.982608695652174,0.678,0.988,0.088
27,ptbxl,a4,50,1000,0.4166666666666667,0.0129371285438537,0.7755102040816326,0.7916666666666666,0.76,0.9894736842105264,0.04
28,ptbxl,a4,20,1000,0.0247831474597273,-0.9497618675231934,0.5714285714285713,0.5454545454545454,0.6,0.9897959183673468,0.05
29,ptbxl,a4,10,1000,0.0126103404791929,-0.8004153966903687,0.4,0.3333333333333333,0.5,0.98989898989899,0.0
30,ikem,a4,1000,1000,1.0,-0.9990060329437256,0.6291980808773132,1.0,0.459,0.0,0.018
31,ikem,a4,500,1000,0.5107252298263536,-0.9986193180084229,0.6044568245125348,0.9954128440366972,0.434,0.998,0.024
32,ikem,a4,50,1000,0.0571428571428571,-0.8431497812271118,0.5783132530120482,0.7272727272727273,0.48,0.9905263157894736,0.0
33,ikem,a4,20,1000,0.0227014755959137,-0.9638664722442628,0.4615384615384615,0.4736842105263157,0.45,0.9897959183673468,0.05
34,ikem,a4,10,1000,0.0125470514429109,-0.4814604520797729,0.1818181818181818,0.1666666666666666,0.2,0.98989898989899,0.0
35,c15p,a3,1000,1000,1.0,0.0103839635848999,0.9775051124744376,1.0,0.956,0.0,0.484
36,c15p,a3,500,1000,0.7936507936507937,0.0071040987968444,0.9520958083832336,0.950199203187251,0.954,0.95,0.468
37,c15p,a3,50,1000,0.2487562189054727,0.0412566661834716,0.6573426573426574,0.5053763440860215,0.94,0.9515789473684212,0.54
38,c15p,a3,20,1000,0.1515151515151515,0.0810840725898742,0.4146341463414634,0.2741935483870967,0.85,0.9540816326530612,0.5
39,c15p,a3,10,1000,0.3448275862068964,0.903111696243286,0.303030303030303,0.1785714285714285,1.0,0.9535353535353536,0.4
40,ikem,a3,1000,1000,1.0,0.0004980564117431,0.7029831387808042,1.0,0.542,0.0,0.105
41,ikem,a3,500,1000,0.5841121495327104,0.0006701350212097,0.7091836734693878,0.9788732394366196,0.556,0.988,0.106
42,ikem,a3,50,1000,0.0750750750750751,0.0010888576507568,0.5348837209302325,0.6388888888888888,0.46,0.9863157894736844,0.1
43,ikem,a3,20,1000,0.0836820083682008,0.0228280425071716,0.4285714285714286,0.4090909090909091,0.45,0.986734693877551,0.1
44,ikem,a3,10,1000,0.045045045045045,0.0261169075965881,0.4137931034482758,0.3157894736842105,0.6,0.9868686868686868,0.1
45,c15p,a2,1000,1000,1.0,0.0006114244461059,0.9653388515261252,1.0,0.933,0.0,0.472
46,c15p,a2,500,1000,0.8361204013377928,0.0203567147254943,0.9619238476953909,0.963855421686747,0.96,0.964,0.472
47,c15p,a2,50,1000,0.3521126760563381,0.1050782799720764,0.7014925373134329,0.5595238095238095,0.94,0.9610526315789474,0.38
48,c15p,a2,20,1000,0.4166666666666667,0.6208579540252686,0.5128205128205129,0.3448275862068966,1.0,0.9612244897959183,0.5
49,c15p,a2,10,1000,0.3703703703703703,0.8559225797653198,0.3448275862068966,0.2083333333333333,1.0,0.9616161616161616,0.7
50,ptbxl,a2,1000,1000,1.0,0.0003408193588256,0.8165680473372781,1.0,0.69,0.0,0.279
51,ptbxl,a2,500,1000,0.693481276005548,0.0004287362098693,0.8131609870740305,0.9857549857549858,0.692,0.99,0.27
52,ptbxl,a2,50,1000,0.4132231404958678,0.0427820682525634,0.8125,0.8478260869565217,0.78,0.9926315789473684,0.34
53,ptbxl,a2,20,1000,0.136986301369863,0.0153868198394775,0.5641025641025641,0.5789473684210527,0.55,0.9918367346938776,0.35
54,ptbxl,a2,10,1000,0.196078431372549,0.1623322963714599,0.5384615384615384,0.4375,0.7,0.990909090909091,0.3
55,ptbxl,a2,1000,1000,1.0,0.0003679990768432,0.8144635447540012,1.0,0.687,0.0,0.279
56,ptbxl,a2,500,1000,0.7598784194528877,0.0012454986572265,0.8070175438596492,0.971830985915493,0.69,0.98,0.296
57,ptbxl,a2,50,1000,0.2415458937198068,0.005069077014923,0.6666666666666666,0.6956521739130435,0.64,0.9852631578947368,0.24
58,ptbxl,a2,20,1000,0.15625,0.0144248008728027,0.553191489361702,0.4814814814814814,0.65,0.9857142857142858,0.2
59,ptbxl,a2,10,1000,0.1851851851851851,0.1399484872817993,0.3870967741935483,0.2857142857142857,0.6,0.9848484848484848,0.2
60,c15p,a3,1000,1000,1.0,0.0014768242835998,0.973305954825462,1.0,0.948,0.0,0.47
61,c15p,a3,500,1000,0.8347245409015026,0.0138075947761535,0.951417004048583,0.9631147540983608,0.94,0.964,0.458
62,c15p,a3,50,1000,0.373134328358209,0.0928493738174438,0.7259259259259259,0.5764705882352941,0.98,0.9621052631578948,0.42
63,c15p,a3,20,1000,0.2409638554216868,0.1886005401611328,0.4871794871794871,0.3275862068965517,0.95,0.960204081632653,0.35
64,c15p,a3,10,1000,0.625,0.9727692008018494,0.3333333333333333,0.2,1.0,0.9595959595959596,0.5
65,ptbxl,a3,1000,1000,1.0,0.001002013683319,0.8066825775656324,1.0,0.676,0.0,0.256
66,ptbxl,a3,500,1000,0.6297229219143579,0.0002060532569885,0.8162790697674417,0.975,0.702,0.982,0.246
67,ptbxl,a3,50,1000,0.1597444089456869,0.001396358013153,0.6530612244897959,0.6666666666666666,0.64,0.983157894736842,0.2
68,ptbxl,a3,20,1000,0.2272727272727273,0.0460458397865295,0.5106382978723405,0.4444444444444444,0.6,0.9846938775510204,0.1
69,ptbxl,a3,10,1000,0.0628930817610062,0.0060310959815979,0.3870967741935483,0.2857142857142857,0.6,0.9848484848484848,0.4
70,ptbxl,a1,1000,1000,1.0,0.0068113803863525,0.0314960629921259,1.0,0.016,0.0,0.0
71,ptbxl,a1,500,1000,0.5010020040080162,0.0128672122955322,0.0387596899224806,0.625,0.02,0.988,0.0
72,ptbxl,a1,50,1000,0.0510204081632653,0.0194385647773742,0.0303030303030303,0.0625,0.02,0.9842105263157894,0.0
73,ptbxl,a1,20,1000,0.0203252032520325,0.0190678834915161,0.0,0.0,0.0,0.9836734693877552,0.0
74,ptbxl,a1,10,1000,0.0101729399796541,0.0189864039421081,0.0,0.0,0.0,0.9838383838383838,0.0
75,ptbxl,a4,1000,1000,1.0,-0.9921548366546632,0.8109393579072534,1.0,0.682,0.0,0.087
76,ptbxl,a4,500,1000,0.5476451259583791,-0.9942245483398438,0.7990487514863257,0.9853372434017597,0.672,0.99,0.076
77,ptbxl,a4,50,1000,0.0814332247557003,-0.0305167436599731,0.6739130434782609,0.7380952380952381,0.62,0.988421052631579,0.12
78,ptbxl,a4,20,1000,0.4761904761904763,0.2476807832717895,0.7346938775510204,0.6206896551724138,0.9,0.9887755102040816,0.0
79,ptbxl,a4,10,1000,0.0130208333333333,-0.7595362663269043,0.3703703703703703,0.2941176470588235,0.5,0.987878787878788,0.0
80,ikem,a1,1000,1000,1.0,0.003307819366455,0.0314960629921259,1.0,0.016,0.0,0.0
81,ikem,a1,500,1000,0.5005005005005007,0.0050773024559021,0.0387596899224806,0.625,0.02,0.988,0.0
82,ikem,a1,50,1000,0.0502008032128514,0.0073266625404357,0.0,0.0,0.0,0.983157894736842,0.0
83,ikem,a1,20,1000,0.0218102508178844,0.0283942222595214,0.0555555555555555,0.0625,0.05,0.9846938775510204,0.0
84,ikem,a1,10,1000,0.0107991360691144,0.0264827609062194,0.0,0.0,0.0,0.9838383838383838,0.0
85,ptbxl,a4,1000,1000,1.0,-0.9940433502197266,0.8002399520095981,1.0,0.667,0.0,0.07
86,ptbxl,a4,500,1000,0.5296610169491527,-0.9969674348831176,0.7666263603385733,0.9694189602446484,0.634,0.98,0.074
87,ptbxl,a4,50,1000,0.0618811881188119,-0.6487329006195068,0.5909090909090909,0.6842105263157895,0.52,0.9873684210526316,0.04
88,ptbxl,a4,20,1000,0.025,-0.5348435640335083,0.5454545454545454,0.5,0.6,0.9877551020408164,0.05
89,ptbxl,a4,10,1000,0.175438596491228,0.0917385816574096,0.3703703703703703,0.2941176470588235,0.5,0.987878787878788,0.0
90,ikem,a4,1000,1000,1.0,-0.9987237453460692,0.6052998605299861,1.0,0.434,0.0,0.018
91,ikem,a4,500,1000,0.5202913631633717,-0.9955708980560304,0.5980528511821975,0.9817351598173516,0.43,0.992,0.026
92,ikem,a4,50,1000,0.0544662309368191,-0.9924596548080444,0.4827586206896552,0.5675675675675675,0.42,0.983157894736842,0.02
93,ikem,a4,20,1000,0.0219780219780219,-0.990193486213684,0.3555555555555555,0.32,0.4,0.9826530612244898,0.0
94,ikem,a4,10,1000,0.0126262626262626,-0.4233406782150268,0.2580645161290322,0.1904761904761904,0.4,0.9828282828282828,0.1
95,ptbxl,a1,1000,1000,1.0,0.0069938898086547,0.0392156862745098,1.0,0.02,0.0,0.0
96,ptbxl,a1,500,1000,0.5005005005005007,0.0078800916671752,0.0384615384615384,0.5,0.02,0.98,0.0
97,ptbxl,a1,50,1000,0.0501002004008016,0.0114050507545471,0.0285714285714285,0.05,0.02,0.98,0.0
98,ptbxl,a1,20,1000,0.0202020202020202,0.0166923999786376,0.0975609756097561,0.0952380952380952,0.1,0.9806122448979592,0.0
99,ptbxl,a1,10,1000,0.0108813928182807,0.0369667410850524,0.0,0.0,0.0,0.9787878787878788,0.0
100,ikem,a2,1000,1000,1.0,0.0004878640174865,0.7096774193548387,1.0,0.55,0.0,0.118
101,ikem,a2,500,1000,0.538793103448276,0.0002186894416809,0.6840731070496084,0.9849624060150376,0.524,0.992,0.118
102,ikem,a2,50,1000,0.087260034904014,0.002300202846527,0.627906976744186,0.75,0.54,0.9905263157894736,0.06
103,ikem,a2,20,1000,0.0321027287319422,0.0014216899871826,0.6190476190476191,0.5909090909090909,0.65,0.9908163265306122,0.15
104,ikem,a2,10,1000,0.0175746924428822,0.0020817518234252,0.4347826086956522,0.3846153846153846,0.5,0.991919191919192,0.3
105,c15p,a1,1000,1000,1.0,0.006588876247406,0.7171263630532393,1.0,0.559,0.0,0.005
106,c15p,a1,500,1000,0.5000000000000002,0.0059214830398559,0.5547169811320755,0.525,0.588,0.468,0.004
107,c15p,a1,50,1000,0.053134962805526,0.075059950351715,0.0918032786885245,0.05,0.56,0.44,0.02
108,c15p,a1,20,1000,0.0201816347124117,0.0210452079772949,0.0275862068965517,0.0142857142857142,0.4,0.436734693877551,0.0
109,c15p,a1,10,1000,0.0110987791342952,0.1051898598670959,0.0175438596491228,0.0089285714285714,0.5,0.4393939393939394,0.0
110,ptbxl,a1,1000,1000,1.0,0.0078369975090026,0.0392156862745098,1.0,0.02,0.0,0.0
111,ptbxl,a1,500,1000,0.5000000000000002,0.0080158114433288,0.0459770114942528,0.5454545454545454,0.024,0.98,0.0
112,ptbxl,a1,50,1000,0.0514933058702368,0.0218321681022644,0.0277777777777777,0.0454545454545454,0.02,0.9778947368421052,0.0
113,ptbxl,a1,20,1000,0.0206825232678386,0.0233368277549743,0.0,0.0,0.0,0.9775510204081632,0.0
114,ptbxl,a1,10,1000,0.010351966873706,0.0244622826576232,0.0,0.0,0.0,0.9777777777777776,0.0
115,c15p,a1,1000,1000,1.0,0.0060598850250244,0.7121699935608501,1.0,0.553,0.0,0.002
116,c15p,a1,500,1000,0.5010020040080162,0.0065183639526367,0.5304182509505705,0.5054347826086957,0.558,0.454,0.002
117,c15p,a1,50,1000,0.0523560209424084,0.0557628273963928,0.09,0.049090909090909,0.54,0.4494736842105263,0.0
118,c15p,a1,20,1000,0.0208768267223382,0.051039695739746,0.0421052631578947,0.0218181818181818,0.6,0.4510204081632653,0.0
119,c15p,a1,10,1000,0.0108695652173913,0.0914385318756103,0.0178890876565295,0.0091074681238615,0.5,0.4505050505050505,0.0
120,ptbxl,a2,1000,1000,1.0,0.0004776716232299,0.8123515439429928,1.0,0.684,0.0,0.275
121,ptbxl,a2,500,1000,0.7204610951008646,0.0004680156707763,0.8070588235294118,0.98,0.686,0.986,0.29
122,ptbxl,a2,50,1000,0.3787878787878789,0.0237796902656555,0.7924528301886793,0.75,0.84,0.9852631578947368,0.26
123,ptbxl,a2,20,1000,0.060790273556231,0.0010499358177185,0.6666666666666665,0.5483870967741935,0.85,0.9857142857142858,0.45
124,ptbxl,a2,10,1000,0.0393700787401574,0.0019143819808959,0.4516129032258064,0.3333333333333333,0.7,0.985858585858586,0.2
125,ikem,a1,1000,1000,1.0,0.0033311247825622,0.048780487804878,1.0,0.025,0.0,0.0
126,ikem,a1,500,1000,0.5000000000000002,0.0031414031982421,0.0495238095238095,0.52,0.026,0.976,0.0
127,ikem,a1,50,1000,0.05,0.0030879974365234,0.0533333333333333,0.08,0.04,0.9757894736842104,0.0
128,ikem,a1,20,1000,0.0208768267223382,0.0190100669860839,0.0,0.0,0.0,0.9755102040816328,0.0
129,ikem,a1,10,1000,0.0173611111111111,0.0822699666023254,0.0,0.0,0.0,0.9757575757575756,0.0
130,ptbxl,a2,1000,1000,1.0,0.0002908110618591,0.8276670574443141,1.0,0.706,0.0,0.278
131,ptbxl,a2,500,1000,0.735294117647059,0.0008121132850646,0.836405529953917,0.9864130434782608,0.726,0.99,0.3
132,ptbxl,a2,50,1000,0.1322751322751323,0.0008602142333984,0.7096774193548386,0.7674418604651163,0.66,0.9894736842105264,0.28
133,ptbxl,a2,20,1000,0.1526717557251908,0.0153579115867614,0.6363636363636365,0.5833333333333334,0.7,0.9897959183673468,0.25
134,ptbxl,a2,10,1000,0.0729927007299269,0.0119687318801879,0.5185185185185185,0.4117647058823529,0.7,0.98989898989899,0.2
135,c15p,a2,1000,1000,1.0,0.0040112137794494,0.9674754775425916,1.0,0.937,0.0,0.47
136,c15p,a2,500,1000,0.6738544474393533,0.0012894868850708,0.9536290322580644,0.9613821138211384,0.946,0.962,0.476
137,c15p,a2,50,1000,0.7042253521126761,0.7400466203689575,0.7352941176470588,0.5813953488372093,1.0,0.9621052631578948,0.62
138,c15p,a2,20,1000,0.6451612903225807,0.9151550531387328,0.5,0.3333333333333333,1.0,0.9591836734693876,0.5
139,c15p,a2,10,1000,0.1162790697674418,0.1202950477600097,0.3103448275862069,0.1875,0.9,0.9606060606060606,0.6
140,ikem,a3,1000,1000,1.0,0.0002983212471008,0.7021414665801429,1.0,0.541,0.0,0.098
141,ikem,a3,500,1000,0.5341880341880344,0.0002059340476989,0.7042253521126761,0.9786476868327402,0.55,0.988,0.106
142,ikem,a3,50,1000,0.0915750915750916,0.0030819177627563,0.6136363636363636,0.7105263157894737,0.54,0.988421052631579,0.02
143,ikem,a3,20,1000,0.0443458980044346,0.005485713481903,0.6046511627906976,0.5652173913043478,0.65,0.9897959183673468,0.15
144,ikem,a3,10,1000,0.1851851851851851,0.210097074508667,0.5517241379310345,0.4210526315789473,0.8,0.9888888888888888,0.1
145,c15p,a1,1000,1000,1.0,0.006331980228424,0.7452948557089084,1.0,0.594,0.0,0.001
146,c15p,a1,500,1000,0.5010020040080162,0.006423532962799,0.5499541704857929,0.5076142131979695,0.6,0.418,0.004
147,c15p,a1,50,1000,0.0504032258064516,0.0201860070228576,0.0907668231611893,0.0492359932088285,0.58,0.4105263157894737,0.0
148,c15p,a1,20,1000,0.0207684319833852,0.0522528886795043,0.0459770114942528,0.0237691001697792,0.7,0.413265306122449,0.0
149,c15p,a1,10,1000,0.0100806451612903,0.0200117826461792,0.013355592654424,0.0067911714770797,0.4,0.4090909090909091,0.0
150,ikem,a1,1000,1000,1.0,0.0043287277221679,0.0372914622178606,1.0,0.019,0.0,0.0
151,ikem,a1,500,1000,0.5005005005005007,0.0056357383728027,0.0308880308880308,0.4444444444444444,0.016,0.98,0.0
152,ikem,a1,50,1000,0.0520291363163371,0.0178256034851074,0.088235294117647,0.1666666666666666,0.06,0.9842105263157894,0.0
153,ikem,a1,20,1000,0.0210084033613445,0.0189718604087829,0.0526315789473684,0.0555555555555555,0.05,0.9826530612244898,0.0
154,ikem,a1,10,1000,0.0102986611740473,0.0163576602935791,0.0714285714285714,0.0555555555555555,0.1,0.9828282828282828,0.0
155,ikem,a1,1000,1000,1.0,0.0041396021842956,0.0334316617502458,1.0,0.017,0.0,0.0
156,ikem,a1,500,1000,0.5005005005005007,0.004894733428955,0.034816247582205,0.5294117647058824,0.018,0.984,0.0
157,ikem,a1,50,1000,0.0503018108651911,0.0084774494171142,0.0,0.0,0.0,0.9821052631578948,0.0
158,ikem,a1,20,1000,0.0204290091930541,0.0137147903442382,0.0,0.0,0.0,0.9816326530612244,0.0
159,ikem,a1,10,1000,0.0107642626480086,0.0254875421524047,0.0,0.0,0.0,0.9818181818181818,0.0
160,ikem,a1,1000,1000,1.0,0.0031724572181701,0.0295566502463054,1.0,0.015,0.0,0.0
161,ikem,a1,500,1000,0.5015045135406221,0.0043034553527832,0.0310679611650485,0.5333333333333333,0.016,0.986,0.0
162,ikem,a1,50,1000,0.05005005005005,0.00330650806427,0.0,0.0,0.0,0.9842105263157894,0.0
163,ikem,a1,20,1000,0.020366598778004,0.0124882459640502,0.0,0.0,0.0,0.9846938775510204,0.0
164,ikem,a1,10,1000,0.0128205128205128,0.0503687858581543,0.0,0.0,0.0,0.9848484848484848,0.0
165,c15p,a2,1000,1000,1.0,0.0027146339416503,0.9674754775425916,1.0,0.937,0.0,0.476
166,c15p,a2,500,1000,0.8305647840531563,0.0209946632385253,0.951417004048583,0.9631147540983608,0.94,0.964,0.488
167,c15p,a2,50,1000,0.462962962962963,0.1841341853141784,0.7500000000000001,0.6153846153846154,0.96,0.968421052631579,0.48
168,c15p,a2,20,1000,0.2409638554216868,0.1269152164459228,0.5588235294117647,0.3958333333333333,0.95,0.970408163265306,0.35
169,c15p,a2,10,1000,0.101010101010101,0.0933334231376648,0.326530612244898,0.2051282051282051,0.8,0.9686868686868688,0.5
170,ptbxl,a2,1000,1000,1.0,0.0010721087455749,0.8249118683901292,1.0,0.702,0.0,0.272
171,ptbxl,a2,500,1000,0.7530120481927712,0.0009770393371582,0.8346820809248555,0.989041095890411,0.722,0.992,0.28
172,ptbxl,a2,50,1000,0.1872659176029963,0.0023192167282104,0.6593406593406594,0.7317073170731707,0.6,0.988421052631579,0.28
173,ptbxl,a2,20,1000,0.1612903225806451,0.0161731839179992,0.7346938775510204,0.6206896551724138,0.9,0.9887755102040816,0.45
174,ptbxl,a2,10,1000,0.059171597633136,0.0054604411125183,0.5,0.3888888888888889,0.7,0.9888888888888888,0.1
175,ikem,a3,1000,1000,1.0,0.0004984140396118,0.7171263630532393,1.0,0.559,0.0,0.124
176,ikem,a3,500,1000,0.5924170616113745,0.00055593252182,0.7141041931385006,0.9790940766550522,0.562,0.988,0.112
177,ikem,a3,50,1000,0.0929368029739777,0.0025221109390258,0.5411764705882354,0.6571428571428571,0.46,0.9873684210526316,0.14
178,ikem,a3,20,1000,0.0806451612903225,0.0240799188613891,0.5909090909090908,0.5416666666666666,0.65,0.9887755102040816,0.1
179,ikem,a3,10,1000,0.0257069408740359,0.0073317289352416,0.3076923076923077,0.25,0.4,0.987878787878788,0.3
180,c15p,a1,1000,1000,1.0,0.0051044821739196,0.7269255251432208,1.0,0.571,0.0,0.002
181,c15p,a1,500,1000,0.5000000000000002,0.0049712061882019,0.5056179775280899,0.4753521126760563,0.54,0.404,0.002
182,c15p,a1,50,1000,0.05,0.0054880380630493,0.0975609756097561,0.0530973451327433,0.6,0.4368421052631579,0.0
183,c15p,a1,20,1000,0.0208333333333333,0.0523366332054138,0.0342465753424657,0.0177304964539007,0.5,0.4346938775510204,0.0
184,c15p,a1,10,1000,0.0104602510460251,0.0575151443481445,0.0174216027874564,0.0088652482269503,0.5,0.4353535353535353,0.0
185,ikem,a4,1000,1000,1.0,-0.9988255500793456,0.6459038591740014,1.0,0.477,0.0,0.027
186,ikem,a4,500,1000,0.5197505197505199,-0.995614767074585,0.6221009549795362,0.9785407725321889,0.456,0.99,0.016
187,ikem,a4,50,1000,0.055005500550055,-0.9853031635284424,0.5813953488372093,0.6944444444444444,0.5,0.988421052631579,0.0
188,ikem,a4,20,1000,0.0223463687150838,-0.9561609029769896,0.5128205128205129,0.5263157894736842,0.5,0.9908163265306122,0.0
189,ikem,a4,10,1000,0.011441647597254,-0.7156834602355957,0.32,0.2666666666666666,0.4,0.9888888888888888,0.1
190,ikem,a4,1000,1000,1.0,-0.9970232248306274,0.6082115518441197,1.0,0.437,0.0,0.018
191,ikem,a4,500,1000,0.517063081695967,-0.9962999820709229,0.5892116182572614,0.9551569506726456,0.426,0.98,0.02
192,ikem,a4,50,1000,0.0536480686695279,-0.9963808059692384,0.5333333333333332,0.6,0.48,0.983157894736842,0.02
193,ikem,a4,20,1000,0.0228050171037628,-0.5838977098464966,0.3043478260869565,0.2692307692307692,0.35,0.9806122448979592,0.0
194,ikem,a4,10,1000,0.0164203612479474,-0.160990834236145,0.4324324324324324,0.2962962962962963,0.8,0.9808080808080808,0.0
195,ikem,a4,1000,1000,1.0,-0.9958047866821288,0.5974754558204769,1.0,0.426,0.0,0.019
196,ikem,a4,500,1000,0.5181347150259069,-0.9968392848968506,0.5806451612903226,0.971830985915493,0.414,0.988,0.022
197,ikem,a4,50,1000,0.053821313240043,-0.9963120222091676,0.481012658227848,0.6551724137931034,0.38,0.9894736842105264,0.0
198,ikem,a4,20,1000,0.0219058050383351,-0.988384485244751,0.3684210526315788,0.3888888888888889,0.35,0.9887755102040816,0.0
199,ikem,a4,10,1000,0.0113636363636363,-0.630040168762207,0.32,0.2666666666666666,0.4,0.9888888888888888,0.0
200,ptbxl,a3,1000,1000,1.0,0.0011986494064331,0.8116458704694,1.0,0.683,0.0,0.278
201,ptbxl,a3,500,1000,0.8077544426494346,0.0024453401565551,0.8032979976442876,0.9770773638968482,0.682,0.984,0.304
202,ptbxl,a3,50,1000,0.2118644067796611,0.003795564174652,0.6593406593406594,0.7317073170731707,0.6,0.988421052631579,0.26
203,ptbxl,a3,20,1000,0.0606060606060606,0.0009487271308898,0.5116279069767442,0.4782608695652174,0.55,0.9877551020408164,0.2
204,ptbxl,a3,10,1000,0.0925925925925925,0.0203647017478942,0.3703703703703703,0.2941176470588235,0.5,0.987878787878788,0.2
205,c15p,a4,1000,1000,1.0,-0.972865104675293,0.9727786337955828,1.0,0.947,0.0,0.054
206,c15p,a4,500,1000,0.517063081695967,-0.927281618118286,0.9409368635437882,0.95850622406639,0.924,0.96,0.048
207,c15p,a4,50,1000,0.0539374325782093,-0.0563111305236816,0.7014925373134329,0.5595238095238095,0.94,0.9610526315789474,0.1
208,c15p,a4,20,1000,0.4878048780487806,0.7829426527023315,0.4938271604938271,0.3278688524590163,1.0,0.9581632653061224,0.05
209,c15p,a4,10,1000,0.144927536231884,0.2844311594963074,0.3050847457627118,0.1836734693877551,0.9,0.9595959595959596,0.0
210,c15p,a3,1000,1000,1.0,0.0108487606048583,0.9743589743589745,1.0,0.95,0.0,0.479
211,c15p,a3,500,1000,0.8517887563884158,0.0357914566993713,0.9537223340040242,0.9595141700404858,0.948,0.96,0.486
212,c15p,a3,50,1000,0.4587155963302753,0.3133472204208374,0.6760563380281689,0.5217391304347826,0.96,0.9536842105263158,0.52
213,c15p,a3,20,1000,0.2173913043478261,0.2248709201812744,0.4418604651162791,0.2878787878787879,0.95,0.9520408163265306,0.4
214,c15p,a3,10,1000,0.2777777777777777,0.7897962331771851,0.303030303030303,0.1785714285714285,1.0,0.9535353535353536,0.3
215,c15p,a2,1000,1000,1.0,0.002134621143341,0.9701338825952626,1.0,0.942,0.0,0.475
216,c15p,a2,500,1000,0.8305647840531563,0.0146126747131347,0.9535353535353536,0.963265306122449,0.944,0.964,0.46
217,c15p,a2,50,1000,0.4504504504504505,0.2575452327728271,0.7058823529411763,0.5581395348837209,0.96,0.96,0.52
218,c15p,a2,20,1000,0.1923076923076923,0.1335394978523254,0.4473684210526316,0.3035714285714285,0.85,0.960204081632653,0.4
219,c15p,a2,10,1000,0.1612903225806451,0.3679165840148926,0.3050847457627118,0.1836734693877551,0.9,0.9595959595959596,0.3
220,ptbxl,a4,1000,1000,1.0,-0.9928232431411744,0.8002399520095981,1.0,0.667,0.0,0.075
221,ptbxl,a4,500,1000,0.5567928730512252,-0.9636740684509276,0.7952095808383233,0.991044776119403,0.664,0.994,0.058
222,ptbxl,a4,50,1000,0.0681198910081744,-0.4447814226150512,0.8,0.8444444444444444,0.76,0.9926315789473684,0.16
223,ptbxl,a4,20,1000,0.0248138957816377,-0.7248127460479736,0.65,0.65,0.65,0.9928571428571428,0.05
224,ptbxl,a4,10,1000,0.175438596491228,0.0369737148284912,0.5833333333333334,0.5,0.7,0.9929292929292928,0.1
225,ptbxl,a1,1000,1000,1.0,0.0080554485321044,0.0314960629921259,1.0,0.016,0.0,0.0
226,ptbxl,a1,500,1000,0.5000000000000002,0.0076715350151062,0.0309477756286266,0.4705882352941176,0.016,0.982,0.0
227,ptbxl,a1,50,1000,0.0501504513540622,0.0120911002159118,0.0298507462686567,0.0588235294117647,0.02,0.983157894736842,0.0
228,ptbxl,a1,20,1000,0.0204498977505112,0.0204141736030578,0.054054054054054,0.0588235294117647,0.05,0.9836734693877552,0.0
229,ptbxl,a1,10,1000,0.0141242937853107,0.0743065476417541,0.0,0.0,0.0,0.9828282828282828,0.0
230,ikem,a3,1000,1000,1.0,0.0001912713050842,0.7138263665594855,1.0,0.555,0.0,0.123
231,ikem,a3,500,1000,0.5868544600938969,0.0006803274154663,0.7079646017699115,0.9621993127147768,0.56,0.978,0.106
232,ikem,a3,50,1000,0.0778816199376947,0.0013068318367004,0.5777777777777778,0.65,0.52,0.9852631578947368,0.1
233,ikem,a3,20,1000,0.1526717557251908,0.0885763168334961,0.3636363636363636,0.3333333333333333,0.4,0.9836734693877552,0.05
234,ikem,a3,10,1000,0.0331125827814569,0.0159618854522705,0.3448275862068966,0.2631578947368421,0.5,0.985858585858586,0.1
235,c15p,a4,1000,1000,1.0,-0.9587454795837402,0.97119341563786,1.0,0.944,0.0,0.048
236,c15p,a4,500,1000,0.5165289256198349,-0.656854510307312,0.9543147208121826,0.9690721649484536,0.94,0.97,0.052
237,c15p,a4,50,1000,0.3875968992248063,0.1128233671188354,0.711111111111111,0.5647058823529412,0.96,0.9610526315789474,0.02
238,c15p,a4,20,1000,0.3278688524590164,0.4903615713119507,0.4871794871794871,0.3275862068965517,0.95,0.960204081632653,0.0
239,c15p,a4,10,1000,0.1999999999999999,0.5013351440429688,0.3333333333333333,0.2,1.0,0.9595959595959596,0.1
240,c15p,a3,1000,1000,1.0,0.0062159299850463,0.9775051124744376,1.0,0.956,0.0,0.484
241,c15p,a3,500,1000,0.8196721311475411,0.0217915177345275,0.9518072289156628,0.9556451612903226,0.948,0.956,0.492
242,c15p,a3,50,1000,0.2976190476190476,0.0739718079566955,0.6715328467153285,0.5287356321839081,0.92,0.956842105263158,0.56
243,c15p,a3,20,1000,0.4651162790697675,0.8302132487297058,0.5,0.3333333333333333,1.0,0.9591836734693876,0.45
244,c15p,a3,10,1000,0.5263157894736841,0.9753899574279784,0.3333333333333333,0.2,1.0,0.9595959595959596,0.4
245,ikem,a4,1000,1000,1.0,-0.9993393421173096,0.6062717770034843,1.0,0.435,0.0,0.016
246,ikem,a4,500,1000,0.503524672708963,-0.9996294975280762,0.6260162601626017,0.9705882352941176,0.462,0.986,0.016
247,ikem,a4,50,1000,0.0510204081632653,-0.999321222305298,0.4337349397590361,0.5454545454545454,0.36,0.9842105263157894,0.02
248,ikem,a4,20,1000,0.0235017626321974,-0.4930201768875122,0.3902439024390244,0.3809523809523809,0.4,0.986734693877551,0.0
249,ikem,a4,10,1000,0.011049723756906,-0.7943527698516846,0.2758620689655172,0.2105263157894736,0.4,0.9848484848484848,0.0
250,ikem,a1,1000,1000,1.0,0.0033143162727355,0.0314960629921259,1.0,0.016,0.0,0.0
251,ikem,a1,500,1000,0.5025125628140705,0.0057968497276306,0.0270793036750483,0.4117647058823529,0.014,0.98,0.0
252,ikem,a1,50,1000,0.0508130081300813,0.0126204490661621,0.0,0.0,0.0,0.9821052631578948,0.0
253,ikem,a1,20,1000,0.0201612903225806,0.006397545337677,0.054054054054054,0.0588235294117647,0.05,0.9836734693877552,0.0
254,ikem,a1,10,1000,0.0100806451612903,0.0064460039138793,0.0,0.0,0.0,0.9828282828282828,0.0
255,ptbxl,a2,1000,1000,1.0,0.0001000165939331,0.8109393579072534,1.0,0.682,0.0,0.279
256,ptbxl,a2,500,1000,0.7987220447284347,0.0020191073417663,0.8080094228504123,0.982808022922636,0.686,0.988,0.304
257,ptbxl,a2,50,1000,0.1449275362318841,0.0013055205345153,0.7070707070707072,0.7142857142857143,0.7,0.9852631578947368,0.3
258,ptbxl,a2,20,1000,0.1626016260162602,0.0214414596557617,0.5833333333333334,0.5,0.7,0.9857142857142858,0.3
259,ptbxl,a2,10,1000,0.196078431372549,0.1708759069442749,0.4516129032258064,0.3333333333333333,0.7,0.985858585858586,0.1
260,ikem,a4,1000,1000,1.0,-0.9986529350280762,0.5945186226282502,1.0,0.423,0.0,0.018
261,ikem,a4,500,1000,0.509164969450102,-0.9973549842834472,0.5955678670360111,0.9684684684684683,0.43,0.986,0.02
262,ikem,a4,50,1000,0.0528541226215645,-0.9960825443267822,0.4,0.6,0.3,0.9894736842105264,0.04
263,ikem,a4,20,1000,0.050632911392405,-0.0325900316238403,0.5714285714285713,0.5454545454545454,0.6,0.9897959183673468,0.0
264,ikem,a4,10,1000,0.0109289617486338,-0.9696855545043944,0.32,0.2666666666666666,0.4,0.9888888888888888,0.0
265,c15p,a2,1000,1000,1.0,0.0257776379585266,0.976458546571136,1.0,0.954,0.0,0.485
266,c15p,a2,500,1000,0.8620689655172414,0.0322552323341369,0.9508525576730192,0.9537223340040242,0.948,0.954,0.488
267,c15p,a2,50,1000,0.5263157894736843,0.4538531899452209,0.7050359712230216,0.550561797752809,0.98,0.9578947368421052,0.6
268,c15p,a2,20,1000,0.7142857142857143,0.981344997882843,0.5063291139240507,0.3389830508474576,1.0,0.960204081632653,0.4
269,c15p,a2,10,1000,0.3846153846153845,0.8701066970825195,0.3389830508474576,0.2040816326530612,1.0,0.9606060606060606,0.7
270,ptbxl,a3,1000,1000,1.0,0.0008874535560607,0.8310929281122151,1.0,0.711,0.0,0.282
271,ptbxl,a3,500,1000,0.6925207756232689,0.0003728866577148,0.8146399055489966,0.9942363112391932,0.69,0.996,0.27
272,ptbxl,a3,50,1000,0.2040816326530612,0.0028196573257446,0.7311827956989247,0.7906976744186046,0.68,0.9905263157894736,0.32
273,ptbxl,a3,20,1000,0.1449275362318841,0.0122278928756713,0.5365853658536585,0.5238095238095238,0.55,0.9897959183673468,0.15
274,ptbxl,a3,10,1000,0.119047619047619,0.0278910398483276,0.3703703703703703,0.2941176470588235,0.5,0.987878787878788,0.2
275,c15p,a2,1000,1000,1.0,0.0014983415603637,0.9769820971867008,1.0,0.955,0.0,0.483
276,c15p,a2,500,1000,0.8802816901408451,0.0282365679740905,0.9595959595959594,0.9693877551020408,0.95,0.97,0.474
277,c15p,a2,50,1000,0.3787878787878789,0.0946607589721679,0.6861313868613138,0.5402298850574713,0.94,0.9578947368421052,0.42
278,c15p,a2,20,1000,0.4761904761904763,0.7782177329063416,0.5,0.3333333333333333,1.0,0.9591836734693876,0.35
279,c15p,a2,10,1000,0.5263157894736841,0.965615451335907,0.3333333333333333,0.2,1.0,0.9595959595959596,0.6
280,ptbxl,a2,1000,1000,1.0,0.0007778406143188,0.8144635447540012,1.0,0.687,0.0,0.287
281,ptbxl,a2,500,1000,0.7278020378457061,0.0006429553031921,0.787515006002401,0.984984984984985,0.656,0.99,0.284
282,ptbxl,a2,50,1000,0.2808988764044944,0.0089375972747802,0.6804123711340208,0.7021276595744681,0.66,0.9852631578947368,0.3
283,ptbxl,a2,20,1000,0.2409638554216868,0.0638262629508972,0.5833333333333334,0.5,0.7,0.9857142857142858,0.3
284,ptbxl,a2,10,1000,0.4545454545454545,0.5435124635696411,0.5882352941176471,0.4166666666666667,1.0,0.985858585858586,0.5
285,c15p,a2,1000,1000,1.0,0.0083126425743103,0.9785495403472932,1.0,0.958,0.0,0.482
286,c15p,a2,500,1000,0.7331378299120236,0.0029954314231872,0.9475806451612904,0.9552845528455284,0.94,0.956,0.49
287,c15p,a2,50,1000,0.1373626373626374,0.0038838386535644,0.6901408450704226,0.532608695652174,0.98,0.9547368421052632,0.54
288,c15p,a2,20,1000,0.2325581395348837,0.2287506461143493,0.4418604651162791,0.2878787878787879,0.95,0.9520408163265306,0.55
289,c15p,a2,10,1000,0.1785714285714285,0.5072806477546692,0.2985074626865671,0.175438596491228,1.0,0.9525252525252526,0.5
290,ptbxl,a3,1000,1000,1.0,0.0003333091735839,0.8158673771462402,1.0,0.689,0.0,0.277
291,ptbxl,a3,500,1000,0.6297229219143579,0.0002365708351135,0.8199767711962833,0.9778393351800554,0.706,0.984,0.296
292,ptbxl,a3,50,1000,0.0874125874125874,0.0002626776695251,0.7450980392156863,0.7307692307692307,0.76,0.9852631578947368,0.38
293,ptbxl,a3,20,1000,0.0651465798045602,0.0012410879135131,0.6274509803921569,0.5161290322580645,0.8,0.9846938775510204,0.4
294,ptbxl,a3,10,1000,0.2083333333333333,0.1925247907638549,0.4375,0.3181818181818182,0.7,0.9848484848484848,0.3
295,ikem,a3,1000,1000,1.0,0.0002474188804626,0.700454840805718,1.0,0.539,0.0,0.1
296,ikem,a3,500,1000,0.5630630630630632,0.0004453063011169,0.6901041666666666,0.9888059701492538,0.53,0.994,0.104
297,ikem,a3,50,1000,0.1012145748987854,0.004249095916748,0.6746987951807228,0.8484848484848485,0.56,0.9947368421052633,0.1
298,ikem,a3,20,1000,0.1438848920863309,0.0837780237197876,0.6111111111111112,0.6875,0.55,0.9948979591836736,0.05
299,ikem,a3,10,1000,0.0177304964539007,0.0021607279777526,0.5714285714285713,0.5454545454545454,0.6,0.9949494949494948,0.1
300,ptbxl,a1,1000,1000,1.0,0.0068483352661132,0.0119284294234592,1.0,0.006,0.0,0.0
301,ptbxl,a1,500,1000,0.5000000000000002,0.0066645145416259,0.0157790927021696,0.5714285714285714,0.008,0.994,0.0
302,ptbxl,a1,50,1000,0.05,0.0068023204803466,0.0,0.0,0.0,0.9926315789473684,0.0
303,ptbxl,a1,20,1000,0.0221729490022173,0.0373687744140625,0.0,0.0,0.0,0.9928571428571428,0.0
304,ptbxl,a1,10,1000,0.0107642626480086,0.0306694507598876,0.0,0.0,0.0,0.9929292929292928,0.0
305,c15p,a3,1000,1000,1.0,0.0029067993164062,0.9727786337955828,1.0,0.947,0.0,0.474
306,c15p,a3,500,1000,0.9328358208955224,0.1307259798049926,0.9642147117296224,0.958498023715415,0.97,0.958,0.494
307,c15p,a3,50,1000,0.5434782608695653,0.4090796709060669,0.7153284671532847,0.5632183908045977,0.98,0.96,0.52
308,c15p,a3,20,1000,0.3921568627450981,0.6184871792793274,0.5,0.3333333333333333,1.0,0.9591836734693876,0.55
309,c15p,a3,10,1000,0.5555555555555555,0.9761183261871338,0.3278688524590164,0.196078431372549,1.0,0.9585858585858584,0.8
310,c15p,a2,1000,1000,1.0,0.0023009181022644,0.97119341563786,1.0,0.944,0.0,0.474
311,c15p,a2,500,1000,0.7680491551459294,0.0056992769241333,0.946215139442231,0.9424603174603174,0.95,0.942,0.476
312,c15p,a2,50,1000,0.2415458937198068,0.0378128886222839,0.6666666666666666,0.5106382978723404,0.96,0.9515789473684212,0.48
313,c15p,a2,20,1000,0.2380952380952381,0.3127522468566894,0.4470588235294117,0.2923076923076923,0.95,0.953061224489796,0.55
314,c15p,a2,10,1000,0.2777777777777777,0.7898087501525879,0.2985074626865671,0.175438596491228,1.0,0.9525252525252526,0.2
315,ptbxl,a4,1000,1000,1.0,-0.9956605434417723,0.7951807228915663,1.0,0.66,0.0,0.074
316,ptbxl,a4,500,1000,0.5405405405405407,-0.9936161041259766,0.8218859138533178,0.9832869080779943,0.706,0.988,0.084
317,ptbxl,a4,50,1000,0.0615763546798029,-0.8452339172363281,0.6741573033707865,0.7692307692307693,0.6,0.9905263157894736,0.04
318,ptbxl,a4,20,1000,0.3448275862068966,0.0502033233642578,0.6666666666666666,0.6363636363636364,0.7,0.9918367346938776,0.0
319,ptbxl,a4,10,1000,0.0122399020807833,-0.946752905845642,0.4166666666666666,0.3571428571428571,0.5,0.990909090909091,0.1
320,ikem,a2,1000,1000,1.0,0.0016978979110717,0.7244897959183673,1.0,0.568,0.0,0.132
321,ikem,a2,500,1000,0.6053268765133174,0.0007284879684448,0.7001287001287002,0.9819494584837544,0.544,0.99,0.118
322,ikem,a2,50,1000,0.101419878296146,0.0040149092674255,0.6117647058823529,0.7428571428571429,0.52,0.9905263157894736,0.1
323,ikem,a2,20,1000,0.0493827160493827,0.0070484280586242,0.5238095238095238,0.5,0.55,0.9887755102040816,0.15
324,ikem,a2,10,1000,0.08130081300813,0.0941126346588134,0.3846153846153846,0.3125,0.5,0.9888888888888888,0.0
325,ikem,a4,1000,1000,1.0,-0.9990813732147216,0.6149584487534626,1.0,0.444,0.0,0.016
326,ikem,a4,500,1000,0.5076142131979697,-0.9986233711242676,0.5975103734439834,0.968609865470852,0.432,0.986,0.016
327,ikem,a4,50,1000,0.0541711809317443,-0.9750601053237916,0.5647058823529412,0.6857142857142857,0.48,0.988421052631579,0.0
328,ikem,a4,20,1000,0.022002200220022,-0.769213080406189,0.3684210526315788,0.3888888888888889,0.35,0.9887755102040816,0.0
329,ikem,a4,10,1000,0.0126262626262626,-0.3218965530395508,0.4444444444444445,0.3529411764705882,0.6,0.9888888888888888,0.0
330,c15p,a1,1000,1000,1.0,0.0056043863296508,0.7236758136566688,1.0,0.567,0.0,0.003
331,c15p,a1,500,1000,0.5000000000000002,0.0062984228134155,0.5158878504672897,0.4842105263157895,0.552,0.412,0.002
332,c15p,a1,50,1000,0.0522466039707419,0.065054178237915,0.116504854368932,0.0633802816901408,0.72,0.44,0.0
333,c15p,a1,20,1000,0.021321961620469,0.0849355459213256,0.0408163265306122,0.0211267605633802,0.6,0.4326530612244898,0.0
334,c15p,a1,10,1000,0.0100200400801603,0.0123419165611267,0.0207612456747404,0.0105633802816901,0.6,0.4323232323232323,0.0
335,c15p,a2,1000,1000,1.0,0.0015929341316223,0.973832734735762,1.0,0.949,0.0,0.478
336,c15p,a2,500,1000,0.8756567425569177,0.0282955169677734,0.95678391959799,0.9616161616161616,0.952,0.962,0.46
337,c15p,a2,50,1000,0.3846153846153847,0.1282491683959961,0.7007299270072993,0.5517241379310345,0.96,0.9589473684210528,0.56
338,c15p,a2,20,1000,0.0743494423791821,0.0079438090324401,0.481012658227848,0.3220338983050847,0.95,0.9591836734693876,0.65
339,c15p,a2,10,1000,0.2083333333333333,0.5211227536201477,0.3389830508474576,0.2040816326530612,1.0,0.9606060606060606,0.1
340,ptbxl,a3,1000,1000,1.0,0.0014798045158386,0.8452655889145496,1.0,0.732,0.0,0.308
341,ptbxl,a3,500,1000,0.7861635220125788,0.0021195411682128,0.7961859356376639,0.9852507374631267,0.668,0.99,0.288
342,ptbxl,a3,50,1000,0.1319261213720317,0.0009368062019348,0.6881720430107526,0.7441860465116279,0.64,0.988421052631579,0.3
343,ptbxl,a3,20,1000,0.1282051282051282,0.0108917951583862,0.5909090909090908,0.5416666666666666,0.65,0.9887755102040816,0.3
344,ptbxl,a3,10,1000,0.0854700854700854,0.0216162800788879,0.5,0.3888888888888889,0.7,0.9888888888888888,0.3
345,ptbxl,a2,1000,1000,1.0,0.0002443790435791,0.8262910798122065,1.0,0.704,0.0,0.27
346,ptbxl,a2,500,1000,0.6993006993006995,0.0004400610923767,0.8042203985932006,0.9716713881019832,0.686,0.98,0.244
347,ptbxl,a2,50,1000,0.4273504273504274,0.05068039894104,0.7428571428571428,0.7090909090909091,0.78,0.983157894736842,0.3
348,ptbxl,a2,20,1000,0.1538461538461538,0.0153570175170898,0.4680851063829787,0.4074074074074074,0.55,0.9836734693877552,0.2
349,ptbxl,a2,10,1000,0.263157894736842,0.3060685396194458,0.4705882352941176,0.3333333333333333,0.8,0.9838383838383838,0.5
350,ikem,a3,1000,1000,1.0,0.0002890229225158,0.6945169712793734,1.0,0.532,0.0,0.104
351,ikem,a3,500,1000,0.6666666666666669,0.0030829310417175,0.6763157894736843,0.9884615384615384,0.514,0.994,0.116
352,ikem,a3,50,1000,0.1278772378516624,0.0104515552520751,0.7272727272727272,0.8421052631578947,0.64,0.9936842105263158,0.16
353,ikem,a3,20,1000,0.0302571860816944,0.0009255409240722,0.5555555555555556,0.625,0.5,0.9938775510204082,0.15
354,ikem,a3,10,1000,0.0476190476190476,0.0354136228561401,0.608695652173913,0.5384615384615384,0.7,0.993939393939394,0.2
355,c15p,a3,1000,1000,1.0,0.0052447319030761,0.9821882951653944,1.0,0.965,0.0,0.479
356,c15p,a3,500,1000,0.8237232289950578,0.0161345601081848,0.954864593781344,0.9577464788732394,0.952,0.958,0.49
357,c15p,a3,50,1000,0.4716981132075472,0.2278987765312194,0.7014925373134329,0.5595238095238095,0.94,0.9610526315789474,0.38
358,c15p,a3,20,1000,0.5555555555555557,0.9006950259208679,0.5,0.3333333333333333,1.0,0.9591836734693876,0.55
359,c15p,a3,10,1000,0.2439024390243902,0.6233236193656921,0.3333333333333333,0.2,1.0,0.9595959595959596,0.3
360,c15p,a3,1000,1000,1.0,0.0213605761528015,0.974884674525884,1.0,0.951,0.0,0.481
361,c15p,a3,500,1000,0.7949125596184421,0.0079876780509948,0.9578313253012049,0.9616935483870968,0.954,0.962,0.478
362,c15p,a3,50,1000,0.1818181818181819,0.0093821883201599,0.6861313868613138,0.5402298850574713,0.94,0.9578947368421052,0.52
363,c15p,a3,20,1000,0.3076923076923077,0.4441621303558349,0.4871794871794871,0.3275862068965517,0.95,0.960204081632653,0.5
364,c15p,a3,10,1000,0.625,0.9888665676116944,0.3333333333333333,0.2,1.0,0.9595959595959596,0.4
365,ptbxl,a1,1000,1000,1.0,0.0061514973640441,0.0430528375733855,1.0,0.022,0.0,0.0
366,ptbxl,a1,500,1000,0.5010020040080162,0.0104283094406127,0.0459770114942528,0.5454545454545454,0.024,0.98,0.0
367,ptbxl,a1,50,1000,0.05973715651135,0.0548799037933349,0.0277777777777777,0.0454545454545454,0.02,0.9778947368421052,0.0
368,ptbxl,a1,20,1000,0.0202634245187436,0.01587575674057,0.0952380952380952,0.0909090909090909,0.1,0.979591836734694,0.0
369,ptbxl,a1,10,1000,0.0101419878296146,0.0160946249961853,0.0,0.0,0.0,0.9777777777777776,0.0
370,c15p,a4,1000,1000,1.0,-0.4930853843688965,0.978027593254982,1.0,0.957,0.0,0.061
371,c15p,a4,500,1000,0.5154639175257734,-0.9606244564056396,0.9596774193548387,0.967479674796748,0.952,0.968,0.062
372,c15p,a4,50,1000,0.4854368932038835,0.1904669404029846,0.7538461538461539,0.6125,0.98,0.9673684210526317,0.04
373,c15p,a4,20,1000,0.0216216216216216,-0.6420509815216064,0.5074626865671642,0.3617021276595745,0.85,0.9693877551020408,0.05
374,c15p,a4,10,1000,0.4166666666666666,0.8304404020309448,0.392156862745098,0.2439024390243902,1.0,0.9686868686868688,0.0
375,ikem,a3,1000,1000,1.0,0.0006970167160034,0.6842105263157895,1.0,0.52,0.0,0.104
376,ikem,a3,500,1000,0.565610859728507,0.0005227923393249,0.712468193384224,0.9790209790209792,0.56,0.988,0.122
377,ikem,a3,50,1000,0.0902527075812274,0.0027652978897094,0.6436781609195402,0.7567567567567568,0.56,0.9905263157894736,0.12
378,ikem,a3,20,1000,0.0378071833648393,0.0031960010528564,0.5641025641025641,0.5789473684210527,0.55,0.9918367346938776,0.0
379,ikem,a3,10,1000,0.040650406504065,0.0291562676429748,0.4166666666666666,0.3571428571428571,0.5,0.990909090909091,0.2
380,ptbxl,a3,1000,1000,1.0,0.0004258751869201,0.8066825775656324,1.0,0.676,0.0,0.285
381,ptbxl,a3,500,1000,0.734214390602056,0.0006573796272277,0.8144690781796965,0.9775910364145658,0.698,0.984,0.302
382,ptbxl,a3,50,1000,0.2463054187192118,0.0062354803085327,0.6938775510204083,0.7083333333333334,0.68,0.9852631578947368,0.36
383,ptbxl,a3,20,1000,0.1754385964912281,0.0236353278160095,0.64,0.5333333333333333,0.8,0.9857142857142858,0.2
384,ptbxl,a3,10,1000,0.2857142857142856,0.2766048908233642,0.5454545454545454,0.391304347826087,0.9,0.985858585858586,0.4
385,ptbxl,a4,1000,1000,1.0,-0.9932477474212646,0.781230956733699,1.0,0.641,0.0,0.072
386,ptbxl,a4,500,1000,0.550660792951542,-0.9932174682617188,0.8028335301062574,0.9798270893371758,0.68,0.986,0.056
387,ptbxl,a4,50,1000,0.0704225352112676,-0.4701464176177978,0.7142857142857142,0.7291666666666666,0.7,0.9863157894736844,0.02
388,ptbxl,a4,20,1000,0.0253485424588086,-0.8073844909667969,0.5833333333333334,0.5,0.7,0.9857142857142858,0.1
389,ptbxl,a4,10,1000,0.1694915254237287,0.0413358211517334,0.4,0.3,0.6,0.985858585858586,0.1
390,ptbxl,a4,1000,1000,1.0,-0.9826531410217284,0.8123515439429928,1.0,0.684,0.0,0.079
391,ptbxl,a4,500,1000,0.5411255411255413,-0.9964642524719238,0.7817745803357314,0.9760479041916168,0.652,0.984,0.066
392,ptbxl,a4,50,1000,0.0612745098039215,-0.962234377861023,0.6938775510204083,0.7083333333333334,0.68,0.9852631578947368,0.1
393,ptbxl,a4,20,1000,0.0250941028858218,-0.8702285289764404,0.5333333333333332,0.48,0.6,0.986734693877551,0.15
394,ptbxl,a4,10,1000,0.0126903553299492,-0.8636605739593506,0.4,0.3,0.6,0.985858585858586,0.2
395,ikem,a2,1000,1000,1.0,0.0005475878715515,0.7236758136566688,1.0,0.567,0.0,0.108
396,ikem,a2,500,1000,0.625782227784731,0.0014622211456298,0.7177522349936143,0.9929328621908128,0.562,0.996,0.102
397,ikem,a2,50,1000,0.0685871056241426,0.0007379651069641,0.7777777777777777,0.875,0.7,0.9947368421052633,0.16
398,ikem,a2,20,1000,0.091324200913242,0.0385817289352417,0.5714285714285715,0.6666666666666666,0.5,0.9948979591836736,0.1
399,ikem,a2,10,1000,0.0617283950617283,0.0653352737426757,0.6,0.6,0.6,0.995959595959596,0.0
400,ptbxl,a3,1000,1000,1.0,0.0004729032516479,0.8186650915534553,1.0,0.693,0.0,0.279
401,ptbxl,a3,500,1000,0.7102272727272728,0.0006211996078491,0.819672131147541,0.9887005649717514,0.7,0.992,0.292
402,ptbxl,a3,50,1000,0.3205128205128206,0.0166031718254089,0.7142857142857142,0.7291666666666666,0.7,0.9863157894736844,0.22
403,ptbxl,a3,20,1000,0.1754385964912281,0.0248594880104064,0.6666666666666665,0.5483870967741935,0.85,0.9857142857142858,0.3
404,ptbxl,a3,10,1000,0.0378787878787878,0.0023240447044372,0.5000000000000001,0.3636363636363636,0.8,0.985858585858586,0.4
405,c15p,a4,1000,1000,1.0,-0.5711723566055298,0.973832734735762,1.0,0.949,0.0,0.056
406,c15p,a4,500,1000,0.5175983436853003,-0.5911040306091309,0.9527638190954774,0.9575757575757576,0.948,0.958,0.064
407,c15p,a4,50,1000,0.0539374325782093,-0.7205667495727539,0.6564885496183206,0.5308641975308642,0.86,0.96,0.04
408,c15p,a4,20,1000,0.2409638554216868,0.1700351238250732,0.4935064935064935,0.3333333333333333,0.95,0.9612244897959183,0.1
409,c15p,a4,10,1000,0.2272727272727272,0.5537559986114502,0.3333333333333333,0.2,1.0,0.9595959595959596,0.0
410,ptbxl,a1,1000,1000,1.0,0.0059576630592346,0.0353634577603143,1.0,0.018,0.0,0.0
411,ptbxl,a1,500,1000,0.5000000000000002,0.0060966610908508,0.0347490347490347,0.5,0.018,0.982,0.0
412,ptbxl,a1,50,1000,0.0508130081300813,0.0170456767082214,0.0,0.0,0.0,0.9810526315789474,0.0
413,ptbxl,a1,20,1000,0.0202224469160768,0.0154380202293396,0.0,0.0,0.0,0.9816326530612244,0.0
414,ptbxl,a1,10,1000,0.0108225108225108,0.0354788899421691,0.0,0.0,0.0,0.9818181818181818,0.0
415,c15p,a1,1000,1000,1.0,0.0066167712211608,0.722860791826309,1.0,0.566,0.0,0.003
416,c15p,a1,500,1000,0.5005005005005007,0.0133547186851501,0.5061147695202258,0.477797513321492,0.538,0.412,0.004
417,c15p,a1,50,1000,0.0537056928034371,0.0906906127929687,0.0851063829787234,0.0463458110516934,0.52,0.4368421052631579,0.0
418,c15p,a1,20,1000,0.0202634245187436,0.0284489393234252,0.0275862068965517,0.0142857142857142,0.4,0.436734693877551,0.0
419,c15p,a1,10,1000,0.0120772946859903,0.1656829714775085,0.0245614035087719,0.0125,0.7,0.4414141414141414,0.0
420,ikem,a1,1000,1000,1.0,0.0028749108314514,0.0295566502463054,1.0,0.015,0.0,0.0
421,ikem,a1,500,1000,0.5000000000000002,0.0029606223106384,0.0310679611650485,0.5333333333333333,0.016,0.986,0.0
422,ikem,a1,50,1000,0.0503524672708962,0.009118914604187,0.0307692307692307,0.0666666666666666,0.02,0.9852631578947368,0.0
423,ikem,a1,20,1000,0.0203873598369011,0.0107871294021606,0.0,0.0,0.0,0.9846938775510204,0.0
424,ikem,a1,10,1000,0.0100603621730382,0.0087797045707702,0.08,0.0666666666666666,0.1,0.985858585858586,0.0
425,c15p,a1,1000,1000,1.0,0.0057380199432373,0.7301587301587301,1.0,0.575,0.0,0.004
426,c15p,a1,500,1000,0.503524672708963,0.0211431980133056,0.5291396854764108,0.4922547332185886,0.572,0.41,0.004
427,c15p,a1,50,1000,0.0502008032128514,0.0156999230384826,0.0925039872408293,0.0502599653379549,0.58,0.4231578947368421,0.0
428,c15p,a1,20,1000,0.0220264317180616,0.1152982115745544,0.0434782608695652,0.0224913494809688,0.65,0.423469387755102,0.0
429,c15p,a1,10,1000,0.010752688172043,0.0971775650978088,0.0238500851788756,0.0121317157712305,0.7,0.4242424242424242,0.0
430,c15p,a4,1000,1000,1.0,-0.7748492956161499,0.970663921770458,1.0,0.943,0.0,0.052
431,c15p,a4,500,1000,0.5219206680584553,-0.4105031490325928,0.9494949494949496,0.9591836734693876,0.94,0.96,0.054
432,c15p,a4,50,1000,0.053821313240043,-0.6915216445922852,0.6962962962962963,0.5529411764705883,0.94,0.96,0.02
433,c15p,a4,20,1000,0.4166666666666667,0.7452696561813354,0.4938271604938271,0.3278688524590163,1.0,0.9581632653061224,0.1
434,c15p,a4,10,1000,0.0699300699300699,0.0509641170501709,0.3,0.18,0.9,0.9585858585858584,0.0
435,ptbxl,a1,1000,1000,1.0,0.0067006349563598,0.0353634577603143,1.0,0.018,0.0,0.0
436,ptbxl,a1,500,1000,0.5000000000000002,0.0067181587219238,0.0386100386100386,0.5555555555555556,0.02,0.984,0.0
437,ptbxl,a1,50,1000,0.0510725229826353,0.0206244587898254,0.0289855072463768,0.0526315789473684,0.02,0.9810526315789474,0.0
438,ptbxl,a1,20,1000,0.0206611570247933,0.0229451656341552,0.0,0.0,0.0,0.9806122448979592,0.0
439,ptbxl,a1,10,1000,0.010351966873706,0.0234162807464599,0.0,0.0,0.0,0.9808080808080808,0.0
440,ikem,a3,1000,1000,1.0,0.0002509951591491,0.7038237200259235,1.0,0.543,0.0,0.133
441,ikem,a3,500,1000,0.5889281507656068,0.0007030367851257,0.7272727272727271,0.9863013698630136,0.576,0.992,0.12
442,ikem,a3,50,1000,0.0905797101449275,0.0022921562194824,0.6428571428571429,0.7941176470588235,0.54,0.9926315789473684,0.12
443,ikem,a3,20,1000,0.0466200466200466,0.0059186816215515,0.65,0.65,0.65,0.9928571428571428,0.05
444,ikem,a3,10,1000,0.0384615384615384,0.02015221118927,0.5833333333333334,0.5,0.7,0.9929292929292928,0.1
445,c15p,a4,1000,1000,1.0,-0.9221291542053224,0.9816700610997964,1.0,0.964,0.0,0.053
446,c15p,a4,500,1000,0.5186721991701246,-0.9038248062133788,0.9476861167002012,0.9534412955465588,0.942,0.954,0.046
447,c15p,a4,50,1000,0.3125,0.0799825191497802,0.6474820143884892,0.5056179775280899,0.9,0.9536842105263158,0.04
448,c15p,a4,20,1000,0.198019801980198,0.1223574876785278,0.4470588235294117,0.2923076923076923,0.95,0.953061224489796,0.15
449,c15p,a4,10,1000,0.588235294117647,0.9877189993858336,0.2985074626865671,0.175438596491228,1.0,0.9525252525252526,0.1
450,ptbxl,a3,1000,1000,1.0,7.37905502319336e-05,0.8283538371411834,1.0,0.707,0.0,0.287
451,ptbxl,a3,500,1000,0.6915629322268327,0.0004543662071228,0.8145539906103287,0.9857954545454546,0.694,0.99,0.288
452,ptbxl,a3,50,1000,0.4132231404958678,0.037871241569519,0.7835051546391754,0.8085106382978723,0.76,0.9905263157894736,0.24
453,ptbxl,a3,20,1000,0.131578947368421,0.0096640586853027,0.6818181818181818,0.625,0.75,0.9908163265306122,0.35
454,ptbxl,a3,10,1000,0.1492537313432835,0.0520178079605102,0.5714285714285714,0.4444444444444444,0.8,0.98989898989899,0.4
455,ikem,a2,1000,1000,1.0,0.0001343488693237,0.7317691819911224,1.0,0.577,0.0,0.129
456,ikem,a2,500,1000,0.580720092915215,0.0006274580955505,0.7051282051282052,0.9821428571428572,0.55,0.99,0.106
457,ikem,a2,50,1000,0.1572327044025158,0.0176817178726196,0.6666666666666666,0.7209302325581395,0.62,0.9873684210526316,0.18
458,ikem,a2,20,1000,0.0666666666666666,0.0164816379547119,0.5116279069767442,0.4782608695652174,0.55,0.9877551020408164,0.15
459,ikem,a2,10,1000,0.028735632183908,0.0107857584953308,0.4285714285714285,0.3333333333333333,0.6,0.987878787878788,0.0
460,c15p,a4,1000,1000,1.0,-0.7885850667953491,0.9727786337955828,1.0,0.947,0.0,0.048
461,c15p,a4,500,1000,0.5175983436853003,-0.8973088264465332,0.951219512195122,0.9669421487603306,0.936,0.968,0.034
462,c15p,a4,50,1000,0.4587155963302753,0.1944273114204406,0.7067669172932332,0.5662650602409639,0.94,0.9621052631578948,0.0
463,c15p,a4,20,1000,0.0881057268722467,0.0132778882980346,0.4615384615384615,0.3103448275862069,0.9,0.9591836734693876,0.0
464,c15p,a4,10,1000,0.09009009009009,0.0756437182426452,0.2857142857142857,0.1739130434782608,0.8,0.9616161616161616,0.0
465,c15p,a3,1000,1000,1.0,0.0146520733833312,0.9769820971867008,1.0,0.955,0.0,0.459
466,c15p,a3,500,1000,0.8787346221441126,0.051587700843811,0.958,0.958,0.958,0.958,0.474
467,c15p,a3,50,1000,0.1677852348993289,0.0084323287010192,0.6666666666666667,0.5365853658536586,0.88,0.96,0.42
468,c15p,a3,20,1000,0.1282051282051282,0.0466648936271667,0.4556962025316455,0.3050847457627119,0.9,0.9581632653061224,0.55
469,c15p,a3,10,1000,0.3225806451612902,0.7803340554237366,0.3278688524590164,0.196078431372549,1.0,0.9585858585858584,0.3
470,c15p,a1,1000,1000,1.0,0.0059438943862915,0.7212276214833758,1.0,0.564,0.0,0.004
471,c15p,a1,500,1000,0.5020080321285142,0.0175064206123352,0.539622641509434,0.5107142857142857,0.572,0.452,0.0
472,c15p,a1,50,1000,0.0503524672708962,0.0228031873703002,0.072487644151565,0.0394973070017953,0.44,0.4368421052631579,0.0
473,c15p,a1,20,1000,0.0209205020920502,0.0594132542610168,0.048526863084922,0.0251346499102333,0.7,0.4459183673469388,0.0
474,c15p,a1,10,1000,0.0101936799184505,0.033950924873352,0.0176366843033509,0.0089766606822262,0.5,0.4424242424242424,0.0
475,ikem,a4,1000,1000,1.0,-0.9992928504943848,0.5974754558204769,1.0,0.426,0.0,0.022
476,ikem,a4,500,1000,0.5096839959225282,-0.9983601570129396,0.5986206896551725,0.9644444444444444,0.434,0.984,0.03
477,ikem,a4,50,1000,0.0545851528384279,-0.9796621799468994,0.5393258426966293,0.6153846153846154,0.48,0.9842105263157894,0.02
478,ikem,a4,20,1000,0.0219780219780219,-0.968743085861206,0.3720930232558139,0.3478260869565217,0.4,0.9846938775510204,0.0
479,ikem,a4,10,1000,0.0109769484083424,-0.9722577333450316,0.0769230769230769,0.0625,0.1,0.9848484848484848,0.1
480,ptbxl,a3,1000,1000,1.0,0.0005329251289367,0.8158673771462402,1.0,0.689,0.0,0.281
481,ptbxl,a3,500,1000,0.8077544426494346,0.0025078058242797,0.8205128205128205,0.9832402234636872,0.704,0.988,0.294
482,ptbxl,a3,50,1000,0.2512562814070352,0.0056269168853759,0.7766990291262137,0.7547169811320755,0.8,0.9863157894736844,0.3
483,ptbxl,a3,20,1000,0.1886792452830189,0.0265241265296936,0.5106382978723405,0.4444444444444444,0.6,0.9846938775510204,0.4
484,ptbxl,a3,10,1000,0.238095238095238,0.2303012013435363,0.3448275862068966,0.2631578947368421,0.5,0.985858585858586,0.2
485,c15p,a3,1000,1000,1.0,0.0056341886520385,0.972250770811922,1.0,0.946,0.0,0.481
486,c15p,a3,500,1000,0.9009009009009008,0.0576343536376953,0.9619238476953909,0.963855421686747,0.96,0.964,0.496
487,c15p,a3,50,1000,0.2645502645502646,0.040419578552246,0.7096774193548386,0.5945945945945946,0.88,0.968421052631579,0.46
488,c15p,a3,20,1000,0.3773584905660378,0.4737616181373596,0.5428571428571428,0.38,0.95,0.9683673469387756,0.45
489,c15p,a3,10,1000,0.1562499999999999,0.2166650891304016,0.36,0.225,0.9,0.9686868686868688,0.3
490,c15p,a4,1000,1000,1.0,-0.900532603263855,0.9769820971867008,1.0,0.955,0.0,0.049
491,c15p,a4,500,1000,0.5192107995846316,-0.7432734966278076,0.9589589589589588,0.9599198396793588,0.958,0.96,0.05
492,c15p,a4,50,1000,0.054525627044711,-0.0224454402923584,0.7164179104477612,0.5714285714285714,0.96,0.9621052631578948,0.04
493,c15p,a4,20,1000,0.06006006006006,0.0038368701934814,0.4736842105263158,0.3214285714285714,0.9,0.9612244897959183,0.1
494,c15p,a4,10,1000,0.2325581395348837,0.5587577819824219,0.3448275862068966,0.2083333333333333,1.0,0.9616161616161616,0.0
495,ptbxl,a1,1000,1000,1.0,0.0064001083374023,0.0411361410381978,1.0,0.021,0.0,0.001
496,ptbxl,a1,500,1000,0.5005005005005007,0.0075330138206481,0.0460652591170825,0.5714285714285714,0.024,0.982,0.0
497,ptbxl,a1,50,1000,0.0510204081632653,0.0211209058761596,0.056338028169014,0.0952380952380952,0.04,0.98,0.02
498,ptbxl,a1,20,1000,0.0205128205128205,0.0224596858024597,0.0975609756097561,0.0952380952380952,0.1,0.9806122448979592,0.0
499,ptbxl,a1,10,1000,0.0101112234580384,0.0171961784362792,0.064516129032258,0.0476190476190476,0.1,0.9797979797979798,0.0
500,ptbxl,a2,1000,1000,1.0,0.0003117322921752,0.8276670574443141,1.0,0.706,0.0,0.286
501,ptbxl,a2,500,1000,0.7633587786259544,0.0011743903160095,0.8149882903981264,0.9830508474576272,0.696,0.988,0.29
502,ptbxl,a2,50,1000,0.2673796791443851,0.008693516254425,0.7311827956989247,0.7906976744186046,0.68,0.9905263157894736,0.24
503,ptbxl,a2,20,1000,0.1219512195121951,0.0085354447364807,0.7111111111111111,0.64,0.8,0.9908163265306122,0.25
504,ptbxl,a2,10,1000,0.0649350649350649,0.0092353820800781,0.5185185185185185,0.4117647058823529,0.7,0.98989898989899,0.3
505,ikem,a2,1000,1000,1.0,0.0004817247390747,0.7046632124352332,1.0,0.544,0.0,0.112
506,ikem,a2,500,1000,0.5359056806002145,0.0002301335334777,0.7372353673723537,0.976897689768977,0.592,0.986,0.116
507,ikem,a2,50,1000,0.0814332247557003,0.001611590385437,0.6947368421052631,0.7333333333333333,0.66,0.9873684210526316,0.1
508,ikem,a2,20,1000,0.06006006006006,0.0113131403923034,0.3,0.3,0.3,0.9857142857142858,0.15
509,ikem,a2,10,1000,0.1282051282051282,0.167970597743988,0.4,0.3,0.6,0.985858585858586,0.2
510,ikem,a3,1000,1000,1.0,0.0008785724639892,0.7012987012987013,1.0,0.54,0.0,0.119
511,ikem,a3,500,1000,0.681198910081744,0.0036609172821044,0.6736566186107471,0.9771863117870724,0.514,0.988,0.084
512,ikem,a3,50,1000,0.089126559714795,0.0024472475051879,0.5842696629213484,0.6666666666666666,0.52,0.9863157894736844,0.14
513,ikem,a3,20,1000,0.0554016620498615,0.0097579956054687,0.4651162790697674,0.4347826086956521,0.5,0.986734693877551,0.05
514,ikem,a3,10,1000,0.036231884057971,0.0181773900985717,0.4666666666666667,0.35,0.7,0.9868686868686868,0.1
515,c15p,a4,1000,1000,1.0,-0.6311304569244385,0.973305954825462,1.0,0.948,0.0,0.054
516,c15p,a4,500,1000,0.5208333333333335,-0.8052370548248291,0.9391480730223124,0.9526748971193416,0.926,0.954,0.042
517,c15p,a4,50,1000,0.0535331905781584,-0.6623296737670898,0.6911764705882352,0.5465116279069767,0.94,0.9589473684210528,0.04
518,c15p,a4,20,1000,0.0628930817610063,0.0037416219711303,0.4675324675324675,0.3157894736842105,0.9,0.960204081632653,0.0
519,c15p,a4,10,1000,0.1265822784810126,0.1452481746673584,0.3050847457627118,0.1836734693877551,0.9,0.9595959595959596,0.0
520,ikem,a2,1000,1000,1.0,0.000767707824707,0.711340206185567,1.0,0.552,0.0,0.099
521,ikem,a2,500,1000,0.5834305717619604,0.0006436705589294,0.7304785894206548,0.9863945578231292,0.58,0.992,0.104
522,ikem,a2,50,1000,0.0841750841750842,0.0018632411956787,0.5977011494252874,0.7027027027027027,0.52,0.988421052631579,0.14
523,ikem,a2,20,1000,0.0303030303030303,0.0011054277420043,0.4878048780487805,0.4761904761904761,0.5,0.9887755102040816,0.25
524,ikem,a2,10,1000,0.0401606425702811,0.032485008239746,0.4444444444444445,0.3529411764705882,0.6,0.9888888888888888,0.1
525,ptbxl,a2,1000,1000,1.0,0.0005911588668823,0.7973541791942274,1.0,0.663,0.0,0.284
526,ptbxl,a2,500,1000,0.735294117647059,0.0006390213966369,0.8113207547169811,0.9885057471264368,0.688,0.992,0.274
527,ptbxl,a2,50,1000,0.2617801047120419,0.0070065259933471,0.6808510638297872,0.7272727272727273,0.64,0.9873684210526316,0.24
528,ptbxl,a2,20,1000,0.5128205128205129,0.2523444890975952,0.6938775510204082,0.5862068965517241,0.85,0.9877551020408164,0.25
529,ptbxl,a2,10,1000,0.0404858299595141,0.0017849802970886,0.5,0.3888888888888889,0.7,0.9888888888888888,0.2
530,ptbxl,a4,1000,1000,1.0,-0.9966224431991576,0.7827145465611686,1.0,0.643,0.0,0.067
531,ptbxl,a4,500,1000,0.5518763796909494,-0.8992857933044434,0.781136638452237,0.9877675840978594,0.646,0.992,0.066
532,ptbxl,a4,50,1000,0.0621890547263681,-0.8123794794082642,0.7708333333333333,0.8043478260869565,0.74,0.9905263157894736,0.08
533,ptbxl,a4,20,1000,0.3174603174603175,0.0537898540496826,0.7391304347826088,0.6538461538461539,0.85,0.9908163265306122,0.2
534,ptbxl,a4,10,1000,0.1851851851851851,0.0729565620422363,0.6428571428571429,0.5,0.9,0.990909090909091,0.1
535,ikem,a1,1000,1000,1.0,0.0032617449760437,0.0411361410381978,1.0,0.021,0.0,0.0
536,ikem,a1,500,1000,0.5000000000000002,0.0034267902374267,0.0420650095602294,0.4782608695652174,0.022,0.976,0.0
537,ikem,a1,50,1000,0.0512295081967213,0.0152984857559204,0.0547945205479452,0.0869565217391304,0.04,0.9778947368421052,0.0
538,ikem,a1,20,1000,0.0230149597238204,0.0355105996131897,0.0,0.0,0.0,0.976530612244898,0.0
539,ikem,a1,10,1000,0.0110011001100109,0.0287131667137146,0.0,0.0,0.0,0.9767676767676768,0.0
540,ikem,a1,1000,1000,1.0,0.0070398449897766,0.0276134122287968,1.0,0.014,0.0,0.0
541,ikem,a1,500,1000,0.5000000000000002,0.0069614052772521,0.0194552529182879,0.3571428571428571,0.01,0.982,0.0
542,ikem,a1,50,1000,0.0511770726714432,0.0160466432571411,0.0625,0.1428571428571428,0.04,0.9873684210526316,0.0
543,ikem,a1,20,1000,0.0219538968166849,0.0303474068641662,0.0,0.0,0.0,0.9857142857142858,0.0
544,ikem,a1,10,1000,0.01085776330076,0.02878999710083,0.0,0.0,0.0,0.985858585858586,0.0
545,ikem,a2,1000,1000,1.0,0.0002188682556152,0.6987638256343527,1.0,0.537,0.0,0.108
546,ikem,a2,500,1000,0.5494505494505496,0.0002611279487609,0.6830530401034928,0.967032967032967,0.528,0.982,0.102
547,ikem,a2,50,1000,0.0970873786407767,0.0033502578735351,0.6666666666666666,0.6956521739130435,0.64,0.9852631578947368,0.1
548,ikem,a2,20,1000,0.0813008130081301,0.0335669517517089,0.4186046511627907,0.391304347826087,0.45,0.9857142857142858,0.0
549,ikem,a2,10,1000,0.0291545189504373,0.0121948719024658,0.2142857142857142,0.1666666666666666,0.3,0.9848484848484848,0.1
550,ikem,a3,1000,1000,1.0,0.0004082322120666,0.7096774193548387,1.0,0.55,0.0,0.101
551,ikem,a3,500,1000,0.603864734299517,0.0010170340538024,0.7198986058301646,0.9826989619377162,0.568,0.99,0.122
552,ikem,a3,50,1000,0.0586166471277843,0.0002736449241638,0.627906976744186,0.75,0.54,0.9905263157894736,0.12
553,ikem,a3,20,1000,0.04,0.0040388107299804,0.6190476190476191,0.5909090909090909,0.65,0.9908163265306122,0.0
554,ikem,a3,10,1000,0.0806451612903225,0.0854504704475402,0.4166666666666666,0.3571428571428571,0.5,0.990909090909091,0.1
555,ikem,a2,1000,1000,1.0,0.0002493262290954,0.7129987129987131,1.0,0.554,0.0,0.094
556,ikem,a2,500,1000,0.603864734299517,0.0013884902000427,0.6533333333333333,0.98,0.49,0.99,0.104
557,ikem,a2,50,1000,0.0802568218298555,0.0016763806343078,0.6888888888888889,0.775,0.62,0.9905263157894736,0.12
558,ikem,a2,20,1000,0.0581395348837209,0.0163946747779846,0.5,0.5,0.5,0.9897959183673468,0.05
559,ikem,a2,10,1000,0.0884955752212389,0.1129904389381408,0.4615384615384615,0.375,0.6,0.98989898989899,0.3
560,ikem,a1,1000,1000,1.0,0.0030961632728576,0.0256663376110562,1.0,0.013,0.0,0.0
561,ikem,a1,500,1000,0.5000000000000002,0.0032076239585876,0.0155945419103313,0.3076923076923077,0.008,0.982,0.0
562,ikem,a1,50,1000,0.0508646998982706,0.0106034874916076,0.0317460317460317,0.0769230769230769,0.02,0.9873684210526316,0.0
563,ikem,a1,20,1000,0.0202020202020202,0.0083178281784057,0.0,0.0,0.0,0.986734693877551,0.0
564,ikem,a1,10,1000,0.0128040973111395,0.0480293035507202,0.0,0.0,0.0,0.9868686868686868,0.0
565,c15p,a1,1000,1000,1.0,0.0054880380630493,0.727735368956743,1.0,0.572,0.0,0.003
566,c15p,a1,500,1000,0.5000000000000002,0.0058079361915588,0.5205223880597015,0.4877622377622377,0.558,0.414,0.004
567,c15p,a1,50,1000,0.0507614213197969,0.0280097723007202,0.0806451612903225,0.043859649122807,0.5,0.4263157894736842,0.0
568,c15p,a1,20,1000,0.027063599458728,0.2711489200592041,0.0508474576271186,0.0263157894736842,0.75,0.4336734693877551,0.0
569,c15p,a1,10,1000,0.0112485939257592,0.1263173818588256,0.0241379310344827,0.0122807017543859,0.7,0.4313131313131313,0.0
570,ikem,a2,1000,1000,1.0,0.0006990432739257,0.727735368956743,1.0,0.572,0.0,0.131
571,ikem,a2,500,1000,0.582072176949942,0.0006396174430847,0.7201017811704834,0.9895104895104896,0.566,0.994,0.136
572,ikem,a2,50,1000,0.0750750750750751,0.0010560750961303,0.6265060240963856,0.7878787878787878,0.52,0.9926315789473684,0.12
573,ikem,a2,20,1000,0.0493827160493827,0.0076839327812194,0.6153846153846154,0.631578947368421,0.6,0.9928571428571428,0.2
574,ikem,a2,10,1000,0.0543478260869565,0.0492043495178222,0.4545454545454545,0.4166666666666667,0.5,0.9929292929292928,0.1
575,ptbxl,a4,1000,1000,1.0,-0.9848320484161376,0.7922705314009661,1.0,0.656,0.0,0.066
576,ptbxl,a4,500,1000,0.5470459518599564,-0.9456205368041992,0.7777777777777778,0.9817073170731708,0.644,0.988,0.066
577,ptbxl,a4,50,1000,0.0575373993095512,-0.9953712224960328,0.7032967032967035,0.7804878048780488,0.64,0.9905263157894736,0.0
578,ptbxl,a4,20,1000,0.0240096038415366,-0.9735208749771118,0.6666666666666665,0.6,0.75,0.9897959183673468,0.05
579,ptbxl,a4,10,1000,0.2702702702702702,0.1968768835067749,0.5,0.3888888888888889,0.7,0.9888888888888888,0.1
580,c15p,a4,1000,1000,1.0,-0.9805777072906494,0.973305954825462,1.0,0.948,0.0,0.058
581,c15p,a4,500,1000,0.5192107995846316,-0.5226389169692993,0.946840521564694,0.9496981891348087,0.944,0.95,0.054
582,c15p,a4,50,1000,0.4098360655737705,0.1986346244812011,0.6713286713286712,0.5161290322580645,0.96,0.9526315789473684,0.06
583,c15p,a4,20,1000,0.5128205128205129,0.8679251074790955,0.4651162790697675,0.303030303030303,1.0,0.953061224489796,0.05
584,c15p,a4,10,1000,0.1030927835051546,0.1275125741958618,0.2727272727272727,0.1607142857142857,0.9,0.9525252525252526,0.0
585,ptbxl,a3,1000,1000,1.0,0.0003774166107177,0.8158673771462402,1.0,0.689,0.0,0.287
586,ptbxl,a3,500,1000,0.6218905472636818,0.0001596212387084,0.8296639629200463,0.9862258953168044,0.716,0.99,0.278
587,ptbxl,a3,50,1000,0.1748251748251749,0.0020329356193542,0.6813186813186813,0.7560975609756098,0.62,0.9894736842105264,0.18
588,ptbxl,a3,20,1000,0.1015228426395939,0.0045759081840515,0.6511627906976744,0.6086956521739131,0.7,0.9908163265306122,0.25
589,ptbxl,a3,10,1000,0.1818181818181818,0.1011678576469421,0.5714285714285714,0.4444444444444444,0.8,0.98989898989899,0.5
